# Frequency,Velocity,Velstd 
#  coords,(12.8, -12.0),(12.8, 21.22)
2.000,303.994,0.769
2.017,303.060,0.409
2.033,302.137,0.402
2.050,301.226,0.396
2.067,300.326,0.390
2.083,299.436,0.388
2.100,298.557,0.388
2.117,297.689,0.388
2.133,296.831,0.388
2.150,295.982,0.388
2.167,295.144,0.388
2.183,294.315,0.388
2.200,293.496,0.388
2.217,292.686,0.388
2.233,291.885,0.388
2.250,291.092,0.388
2.267,290.309,0.388
2.283,289.534,0.388
2.300,288.767,0.388
2.317,288.009,0.388
2.333,287.259,0.388
2.350,286.517,0.388
2.367,285.782,0.388
2.383,285.056,0.388
2.400,284.336,0.388
2.417,283.625,0.388
2.433,282.920,0.388
2.450,282.223,0.388
2.467,281.533,0.388
2.483,280.850,0.388
2.500,280.174,0.388
2.517,279.505,0.388
2.533,278.842,0.388
2.550,278.185,0.388
2.567,277.535,0.388
2.583,276.892,0.388
2.600,276.254,0.388
2.617,275.623,0.388
2.633,274.997,0.388
2.650,274.378,0.388
2.667,273.764,0.388
2.683,273.157,0.388
2.700,272.554,0.388
2.717,271.958,0.388
2.733,271.367,0.388
2.750,270.781,0.388
2.767,270.201,0.388
2.783,269.625,0.388
2.800,269.055,0.388
2.817,268.491,0.388
2.833,267.931,0.388
2.850,267.376,0.388
2.867,266.826,0.388
2.883,266.280,0.388
2.900,265.739,0.388
2.917,265.203,0.388
2.933,264.672,0.388
2.950,264.145,0.388
2.967,263.622,0.388
2.983,263.104,0.388
3.000,262.590,0.388
3.017,262.081,0.388
3.033,261.575,0.388
3.050,261.074,0.388
3.067,260.577,0.388
3.083,260.084,0.388
3.100,259.595,0.388
3.117,259.110,0.388
3.133,258.629,0.388
3.150,258.151,0.388
3.167,257.678,0.388
3.183,257.208,0.388
3.200,256.742,0.388
3.217,256.279,0.388
3.233,255.820,0.388
3.250,255.365,0.388
3.267,254.913,0.388
3.283,254.464,0.388
3.300,254.019,0.388
3.317,253.577,0.388
3.333,253.139,0.388
3.350,252.704,0.388
3.367,252.272,0.388
3.383,251.843,0.388
3.400,251.417,0.388
3.417,250.994,0.388
3.433,250.575,0.388
3.450,250.159,0.388
3.467,249.745,0.388
3.483,249.335,0.388
3.500,248.927,0.388
3.517,248.523,0.388
3.533,248.121,0.388
3.550,247.722,0.388
3.567,247.326,0.388
3.583,246.933,0.388
3.600,246.542,0.388
3.617,246.155,0.388
3.633,245.769,0.388
3.650,245.387,0.388
3.667,245.007,0.388
3.683,244.630,0.388
3.700,244.255,0.388
3.717,243.883,0.388
3.733,243.513,0.388
3.750,243.145,0.388
3.767,242.781,0.388
3.783,242.418,0.388
3.800,242.058,0.388
3.817,241.700,0.388
3.833,241.345,0.388
3.850,240.992,0.388
3.867,240.641,0.388
3.883,240.293,0.388
3.900,239.946,0.388
3.917,239.602,0.388
3.933,239.260,0.388
3.950,238.921,0.388
3.967,238.583,0.388
3.983,238.248,0.388
4.000,237.914,0.388
4.017,237.583,0.388
4.033,237.254,0.388
4.050,236.927,0.388
4.067,236.602,0.388
4.083,236.278,0.388
4.100,235.957,0.388
4.117,235.638,0.388
4.133,235.320,0.388
4.150,235.005,0.388
4.167,234.691,0.388
4.183,234.380,0.388
4.200,234.070,0.388
4.217,233.762,0.388
4.233,233.455,0.388
4.250,233.151,0.388
4.267,232.848,0.388
4.283,232.547,0.388
4.300,232.248,0.388
4.317,231.951,0.388
4.333,231.655,0.388
4.350,231.361,0.388
4.367,231.069,0.388
4.383,230.778,0.388
4.400,230.489,0.388
4.417,230.202,0.388
4.433,229.916,0.388
4.450,229.632,0.388
4.467,229.349,0.388
4.483,229.068,0.388
4.500,228.789,0.388
4.517,228.511,0.388
4.533,228.235,0.388
4.550,227.960,0.388
4.567,227.687,0.388
4.583,227.415,0.388
4.600,227.144,0.388
4.617,226.875,0.388
4.633,226.608,0.388
4.650,226.342,0.388
4.667,226.078,0.388
4.683,225.815,0.388
4.700,225.553,0.388
4.717,225.293,0.388
4.733,225.034,0.388
4.750,224.776,0.388
4.767,224.520,0.388
4.783,224.265,0.388
4.800,224.012,0.388
4.817,223.760,0.388
4.833,223.509,0.388
4.850,223.260,0.388
4.867,223.011,0.388
4.883,222.765,0.388
4.900,222.519,0.388
4.917,222.275,0.388
4.933,222.032,0.388
4.950,221.790,0.388
4.967,221.549,0.388
4.983,221.310,0.388
5.000,221.071,0.388
5.017,220.834,0.388
5.033,220.599,0.388
5.050,220.364,0.388
5.067,220.131,0.388
5.083,219.899,0.388
5.100,219.668,0.388
5.117,219.438,0.388
5.133,219.209,0.388
5.150,218.981,0.388
5.167,218.755,0.388
5.183,218.530,0.388
5.200,218.305,0.388
5.217,218.082,0.388
5.233,217.860,0.388
5.250,217.639,0.388
5.267,217.419,0.388
5.283,217.200,0.388
5.300,216.982,0.388
5.317,216.765,0.388
5.333,216.549,0.388
5.350,216.334,0.388
5.367,216.120,0.388
5.383,215.908,0.388
5.400,215.696,0.388
5.417,215.485,0.388
5.433,215.275,0.388
5.450,215.066,0.388
5.467,214.858,0.388
5.483,214.651,0.388
5.500,214.445,0.388
5.517,214.240,0.388
5.533,214.035,0.388
5.550,213.832,0.388
5.567,213.630,0.388
5.583,213.429,0.388
5.600,213.228,0.388
5.617,213.028,0.388
5.633,212.829,0.388
5.650,212.631,0.388
5.667,212.434,0.388
5.683,212.238,0.388
5.700,212.042,0.388
5.717,211.848,0.388
5.733,211.654,0.388
5.750,211.461,0.388
5.767,211.268,0.388
5.783,211.077,0.388
5.800,210.886,0.388
5.817,210.697,0.388
5.833,210.508,0.388
5.850,210.320,0.388
5.867,210.132,0.388
5.883,209.945,0.388
5.900,209.760,0.388
5.917,209.575,0.388
5.933,209.390,0.388
5.950,209.207,0.388
5.967,209.024,0.388
5.983,208.842,0.388
6.000,208.660,0.388
6.017,208.480,0.388
6.033,208.300,0.388
6.050,208.120,0.388
6.067,207.942,0.388
6.083,207.764,0.388
6.100,207.587,0.388
6.117,207.411,0.388
6.133,207.235,0.388
6.150,207.060,0.388
6.167,206.886,0.388
6.183,206.712,0.388
6.200,206.539,0.388
6.217,206.367,0.388
6.233,206.195,0.388
6.250,206.024,0.388
6.267,205.854,0.388
6.283,205.684,0.388
6.300,205.515,0.388
6.317,205.347,0.388
6.333,205.179,0.388
6.350,205.012,0.388
6.367,204.845,0.388
6.383,204.680,0.388
6.400,204.514,0.388
6.417,204.350,0.388
6.433,204.186,0.388
6.450,204.022,0.388
6.467,203.860,0.388
6.483,203.698,0.388
6.500,203.537,0.388
6.517,203.376,0.388
6.533,203.216,0.388
6.550,203.056,0.388
6.567,202.897,0.388
6.583,202.739,0.388
6.600,202.582,0.388
6.617,202.425,0.388
6.633,202.268,0.388
6.650,202.113,0.388
6.667,201.957,0.388
6.683,201.803,0.388
6.700,201.649,0.388
6.717,201.496,0.388
6.733,201.343,0.388
6.750,201.191,0.388
6.767,201.040,0.388
6.783,200.889,0.388
6.800,200.739,0.388
6.817,200.589,0.388
6.833,200.440,0.388
6.850,200.291,0.388
6.867,200.144,0.388
6.883,199.996,0.388
6.900,199.850,0.388
6.917,199.704,0.388
6.933,199.558,0.388
6.950,199.413,0.388
6.967,199.269,0.388
6.983,199.125,0.388
7.000,198.982,0.388
7.017,198.839,0.388
7.033,198.697,0.388
7.050,198.555,0.388
7.067,198.414,0.388
7.083,198.274,0.388
7.100,198.134,0.388
7.117,197.994,0.388
7.133,197.855,0.388
7.150,197.717,0.388
7.167,197.579,0.388
7.183,197.442,0.388
7.200,197.305,0.388
7.217,197.168,0.388
7.233,197.033,0.388
7.250,196.897,0.388
7.267,196.762,0.388
7.283,196.628,0.388
7.300,196.494,0.388
7.317,196.360,0.388
7.333,196.227,0.388
7.350,196.094,0.388
7.367,195.962,0.388
7.383,195.830,0.388
7.400,195.699,0.388
7.417,195.568,0.388
7.433,195.437,0.388
7.450,195.307,0.388
7.467,195.178,0.388
7.483,195.049,0.388
7.500,194.920,0.388
7.517,194.791,0.388
7.533,194.663,0.388
7.550,194.535,0.388
7.567,194.407,0.388
7.583,194.280,0.388
7.600,194.154,0.388
7.617,194.027,0.388
7.633,193.901,0.388
7.650,193.776,0.388
7.667,193.651,0.388
7.683,193.527,0.388
7.700,193.402,0.388
7.717,193.278,0.388
7.733,193.155,0.388
7.750,193.031,0.388
7.767,192.908,0.388
7.783,192.786,0.388
7.800,192.663,0.388
7.817,192.541,0.388
7.833,192.419,0.388
7.850,192.298,0.388
7.867,192.177,0.388
7.883,192.056,0.388
7.900,191.936,0.388
7.917,191.816,0.388
7.933,191.696,0.388
7.950,191.576,0.388
7.967,191.457,0.388
7.983,191.339,0.388
8.000,191.220,0.388
8.017,191.102,0.388
8.033,190.984,0.388
8.050,190.867,0.388
8.067,190.750,0.388
8.083,190.633,0.388
8.100,190.516,0.388
8.117,190.400,0.388
8.133,190.285,0.388
8.150,190.170,0.388
8.167,190.055,0.388
8.183,189.940,0.388
8.200,189.826,0.388
8.217,189.711,0.388
8.233,189.598,0.388
8.250,189.484,0.388
8.267,189.371,0.388
8.283,189.259,0.388
8.300,189.146,0.388
8.317,189.034,0.388
8.333,188.922,0.388
8.350,188.811,0.388
8.367,188.700,0.388
8.383,188.589,0.388
8.400,188.479,0.388
8.417,188.369,0.388
8.433,188.259,0.388
8.450,188.150,0.388
8.467,188.042,0.388
8.483,187.933,0.388
8.500,187.825,0.388
8.517,187.717,0.388
8.533,187.610,0.388
8.550,187.502,0.388
8.567,187.395,0.388
8.583,187.289,0.388
8.600,187.183,0.388
8.617,187.077,0.388
8.633,186.972,0.388
8.650,186.867,0.388
8.667,186.762,0.388
8.683,186.658,0.388
8.700,186.554,0.388
8.717,186.450,0.388
8.733,186.347,0.388
8.750,186.244,0.388
8.767,186.141,0.388
8.783,186.039,0.388
8.800,185.937,0.388
8.817,185.835,0.388
8.833,185.734,0.388
8.850,185.633,0.388
8.867,185.533,0.388
8.883,185.432,0.388
8.900,185.332,0.388
8.917,185.233,0.388
8.933,185.133,0.388
8.950,185.034,0.388
8.967,184.935,0.388
8.983,184.837,0.388
9.000,184.738,0.388
9.017,184.640,0.388
9.033,184.543,0.388
9.050,184.445,0.388
9.067,184.348,0.388
9.083,184.251,0.388
9.100,184.155,0.388
9.117,184.058,0.388
9.133,183.962,0.388
9.150,183.866,0.388
9.167,183.771,0.388
9.183,183.675,0.388
9.200,183.580,0.388
9.217,183.485,0.388
9.233,183.390,0.388
9.250,183.296,0.388
9.267,183.201,0.388
9.283,183.107,0.388
9.300,183.013,0.388
9.317,182.920,0.388
9.333,182.827,0.388
9.350,182.734,0.388
9.367,182.641,0.388
9.383,182.548,0.388
9.400,182.456,0.388
9.417,182.364,0.388
9.433,182.272,0.388
9.450,182.180,0.388
9.467,182.089,0.388
9.483,181.997,0.388
9.500,181.906,0.388
9.517,181.815,0.388
9.533,181.724,0.388
9.550,181.633,0.388
9.567,181.543,0.388
9.583,181.452,0.388
9.600,181.362,0.388
9.617,181.272,0.388
9.633,181.182,0.388
9.650,181.092,0.388
9.667,181.003,0.388
9.683,180.913,0.388
9.700,180.825,0.388
9.717,180.736,0.388
9.733,180.648,0.388
9.750,180.559,0.388
9.767,180.471,0.388
9.783,180.384,0.388
9.800,180.296,0.388
9.817,180.209,0.388
9.833,180.122,0.388
9.850,180.036,0.388
9.867,179.949,0.388
9.883,179.863,0.388
9.900,179.777,0.388
9.917,179.692,0.388
9.933,179.607,0.388
9.950,179.522,0.388
9.967,179.437,0.388
9.983,179.352,0.388
10.000,179.268,0.388
10.017,179.185,0.388
10.033,179.101,0.388
10.050,179.018,0.388
10.067,178.935,0.388
10.083,178.852,0.388
10.100,178.769,0.388
10.117,178.687,0.388
10.133,178.605,0.388
10.150,178.524,0.388
10.167,178.442,0.388
10.183,178.361,0.388
10.200,178.280,0.388
10.217,178.199,0.388
10.233,178.117,0.390
10.250,178.036,0.396
10.267,177.956,0.402
10.283,177.875,0.408
10.300,177.796,0.769
