# Frequency,Velocity,Velstd 
#  coords,(25.6, -12.0),(0.45, 23.759999999999998)
2.511,324.918,0.769
2.533,323.571,0.409
2.556,322.242,0.402
2.578,320.929,0.396
2.600,319.634,0.390
2.622,318.355,0.388
2.644,317.093,0.388
2.667,315.846,0.388
2.689,314.614,0.388
2.711,313.398,0.388
2.733,312.196,0.388
2.756,311.009,0.388
2.778,309.837,0.388
2.800,308.678,0.388
2.822,307.534,0.388
2.844,306.402,0.388
2.867,305.284,0.388
2.889,304.179,0.388
2.911,303.086,0.388
2.933,302.006,0.388
2.956,300.938,0.388
2.978,299.882,0.388
3.000,298.838,0.388
3.022,297.806,0.388
3.044,296.784,0.388
3.067,295.774,0.388
3.089,294.775,0.388
3.111,293.787,0.388
3.133,292.809,0.388
3.156,291.841,0.388
3.178,290.884,0.388
3.200,289.937,0.388
3.222,288.999,0.388
3.244,288.071,0.388
3.267,287.153,0.388
3.289,286.243,0.388
3.311,285.343,0.388
3.333,284.452,0.388
3.356,283.570,0.388
3.378,282.697,0.388
3.400,281.832,0.388
3.422,280.976,0.388
3.444,280.128,0.388
3.467,279.288,0.388
3.489,278.456,0.388
3.511,277.632,0.388
3.533,276.816,0.388
3.556,276.007,0.388
3.578,275.206,0.388
3.600,274.413,0.388
3.622,273.627,0.388
3.644,272.848,0.388
3.667,272.076,0.388
3.689,271.311,0.388
3.711,270.553,0.388
3.733,269.801,0.388
3.756,269.057,0.388
3.778,268.319,0.388
3.800,267.587,0.388
3.822,266.862,0.388
3.844,266.143,0.388
3.867,265.431,0.388
3.889,264.724,0.388
3.911,264.024,0.388
3.933,263.329,0.388
3.956,262.640,0.388
3.978,261.958,0.388
4.000,261.280,0.388
4.022,260.609,0.388
4.044,259.943,0.388
4.067,259.282,0.388
4.089,258.627,0.388
4.111,257.977,0.388
4.133,257.333,0.388
4.156,256.693,0.388
4.178,256.059,0.388
4.200,255.430,0.388
4.222,254.805,0.388
4.244,254.186,0.388
4.267,253.572,0.388
4.289,252.962,0.388
4.311,252.357,0.388
4.333,251.757,0.388
4.356,251.161,0.388
4.378,250.569,0.388
4.400,249.983,0.388
4.422,249.400,0.388
4.444,248.822,0.388
4.467,248.249,0.388
4.489,247.679,0.388
4.511,247.114,0.388
4.533,246.553,0.388
4.556,245.996,0.388
4.578,245.443,0.388
4.600,244.894,0.388
4.622,244.349,0.388
4.644,243.808,0.388
4.667,243.271,0.388
4.689,242.738,0.388
4.711,242.208,0.388
4.733,241.683,0.388
4.756,241.161,0.388
4.778,240.642,0.388
4.800,240.127,0.388
4.822,239.616,0.388
4.844,239.108,0.388
4.867,238.604,0.388
4.889,238.103,0.388
4.911,237.606,0.388
4.933,237.112,0.388
4.956,236.621,0.388
4.978,236.134,0.388
5.000,235.649,0.388
5.022,235.169,0.388
5.044,234.691,0.388
5.067,234.216,0.388
5.089,233.745,0.388
5.111,233.276,0.388
5.133,232.811,0.388
5.156,232.348,0.388
5.178,231.889,0.388
5.200,231.432,0.388
5.222,230.979,0.388
5.244,230.528,0.388
5.267,230.080,0.388
5.289,229.636,0.388
5.311,229.193,0.388
5.333,228.754,0.388
5.356,228.317,0.388
5.378,227.883,0.388
5.400,227.452,0.388
5.422,227.023,0.388
5.444,226.597,0.388
5.467,226.174,0.388
5.489,225.753,0.388
5.511,225.335,0.388
5.533,224.919,0.388
5.556,224.505,0.388
5.578,224.095,0.388
5.600,223.686,0.388
5.622,223.280,0.388
5.644,222.876,0.388
5.667,222.475,0.388
5.689,222.076,0.388
5.711,221.680,0.388
5.733,221.285,0.388
5.756,220.893,0.388
5.778,220.504,0.388
5.800,220.116,0.388
5.822,219.731,0.388
5.844,219.348,0.388
5.867,218.967,0.388
5.889,218.588,0.388
5.911,218.212,0.388
5.933,217.837,0.388
5.956,217.465,0.388
5.978,217.095,0.388
6.000,216.727,0.388
6.022,216.360,0.388
6.044,215.996,0.388
6.067,215.634,0.388
6.089,215.274,0.388
6.111,214.916,0.388
6.133,214.559,0.388
6.156,214.205,0.388
6.178,213.852,0.388
6.200,213.502,0.388
6.222,213.153,0.388
6.244,212.806,0.388
6.267,212.462,0.388
6.289,212.119,0.388
6.311,211.777,0.388
6.333,211.438,0.388
6.356,211.100,0.388
6.378,210.764,0.388
6.400,210.430,0.388
6.422,210.098,0.388
6.444,209.767,0.388
6.467,209.438,0.388
6.489,209.111,0.388
6.511,208.786,0.388
6.533,208.462,0.388
6.556,208.140,0.388
6.578,207.819,0.388
6.600,207.500,0.388
6.622,207.183,0.388
6.644,206.867,0.388
6.667,206.553,0.388
6.689,206.241,0.388
6.711,205.930,0.388
6.733,205.620,0.388
6.756,205.312,0.388
6.778,205.006,0.388
6.800,204.701,0.388
6.822,204.397,0.388
6.844,204.096,0.388
6.867,203.795,0.388
6.889,203.496,0.388
6.911,203.199,0.388
6.933,202.903,0.388
6.956,202.608,0.388
6.978,202.315,0.388
7.000,202.023,0.388
7.022,201.732,0.388
7.044,201.443,0.388
7.067,201.155,0.388
7.089,200.869,0.388
7.111,200.584,0.388
7.133,200.300,0.388
7.156,200.017,0.388
7.178,199.736,0.388
7.200,199.456,0.388
7.222,199.178,0.388
7.244,198.900,0.388
7.267,198.624,0.388
7.289,198.349,0.388
7.311,198.076,0.388
7.333,197.803,0.388
7.356,197.532,0.388
7.378,197.263,0.388
7.400,196.994,0.388
7.422,196.727,0.388
7.444,196.460,0.388
7.467,196.195,0.388
7.489,195.932,0.388
7.511,195.669,0.388
7.533,195.408,0.388
7.556,195.147,0.388
7.578,194.888,0.388
7.600,194.630,0.388
7.622,194.373,0.388
7.644,194.118,0.388
7.667,193.863,0.388
7.689,193.609,0.388
7.711,193.357,0.388
7.733,193.106,0.388
7.756,192.855,0.388
7.778,192.606,0.388
7.800,192.358,0.388
7.822,192.111,0.388
7.844,191.865,0.388
7.867,191.620,0.388
7.889,191.376,0.388
7.911,191.133,0.388
7.933,190.891,0.388
7.956,190.651,0.388
7.978,190.411,0.388
8.000,190.172,0.388
8.022,189.934,0.388
8.044,189.697,0.388
8.067,189.461,0.388
8.089,189.226,0.388
8.111,188.992,0.388
8.133,188.759,0.388
8.156,188.527,0.388
8.178,188.296,0.388
8.200,188.065,0.388
8.222,187.836,0.388
8.244,187.608,0.388
8.267,187.381,0.388
8.289,187.155,0.388
8.311,186.929,0.388
8.333,186.704,0.388
8.356,186.480,0.388
8.378,186.257,0.388
8.400,186.034,0.390
8.422,185.813,0.396
8.444,185.593,0.402
8.467,185.373,0.409
8.489,185.154,0.769
