# Frequency,Velocity,Velstd 
#  coords,(0.45, -0.08000000000000007),(23.25, 23.759999999999998)
2.000,274.829,0.769
2.022,274.040,0.409
2.044,273.263,0.402
2.067,272.500,0.396
2.089,271.748,0.390
2.111,271.009,0.388
2.133,270.281,0.388
2.156,269.564,0.388
2.178,268.858,0.388
2.200,268.163,0.388
2.222,267.478,0.388
2.244,266.804,0.388
2.267,266.139,0.388
2.289,265.484,0.388
2.311,264.839,0.388
2.333,264.202,0.388
2.356,263.575,0.388
2.378,262.957,0.388
2.400,262.347,0.388
2.422,261.746,0.388
2.444,261.153,0.388
2.467,260.568,0.388
2.489,259.990,0.388
2.511,259.421,0.388
2.533,258.858,0.388
2.556,258.303,0.388
2.578,257.756,0.388
2.600,257.215,0.388
2.622,256.681,0.388
2.644,256.154,0.388
2.667,255.633,0.388
2.689,255.119,0.388
2.711,254.612,0.388
2.733,254.110,0.388
2.756,253.615,0.388
2.778,253.125,0.388
2.800,252.642,0.388
2.822,252.164,0.388
2.844,251.692,0.388
2.867,251.225,0.388
2.889,250.764,0.388
2.911,250.308,0.388
2.933,249.857,0.388
2.956,249.411,0.388
2.978,248.970,0.388
3.000,248.535,0.388
3.022,248.104,0.388
3.044,247.677,0.388
3.067,247.256,0.388
3.089,246.839,0.388
3.111,246.427,0.388
3.133,246.019,0.388
3.156,245.615,0.388
3.178,245.215,0.388
3.200,244.820,0.388
3.222,244.429,0.388
3.244,244.042,0.388
3.267,243.659,0.388
3.289,243.279,0.388
3.311,242.904,0.388
3.333,242.532,0.388
3.356,242.164,0.388
3.378,241.800,0.388
3.400,241.439,0.388
3.422,241.082,0.388
3.444,240.728,0.388
3.467,240.378,0.388
3.489,240.031,0.388
3.511,239.687,0.388
3.533,239.347,0.388
3.556,239.010,0.388
3.578,238.676,0.388
3.600,238.345,0.388
3.622,238.017,0.388
3.644,237.692,0.388
3.667,237.370,0.388
3.689,237.051,0.388
3.711,236.734,0.388
3.733,236.421,0.388
3.756,236.110,0.388
3.778,235.802,0.388
3.800,235.497,0.388
3.822,235.194,0.388
3.844,234.894,0.388
3.867,234.597,0.388
3.889,234.302,0.388
3.911,234.010,0.388
3.933,233.721,0.388
3.956,233.434,0.388
3.978,233.149,0.388
4.000,232.866,0.388
4.022,232.586,0.388
4.044,232.308,0.388
4.067,232.033,0.388
4.089,231.759,0.388
4.111,231.488,0.388
4.133,231.220,0.388
4.156,230.953,0.388
4.178,230.688,0.388
4.200,230.426,0.388
4.222,230.165,0.388
4.244,229.907,0.388
4.267,229.651,0.388
4.289,229.396,0.388
4.311,229.144,0.388
4.333,228.893,0.388
4.356,228.645,0.388
4.378,228.398,0.388
4.400,228.154,0.388
4.422,227.911,0.388
4.444,227.670,0.388
4.467,227.430,0.388
4.489,227.193,0.388
4.511,226.957,0.388
4.533,226.723,0.388
4.556,226.491,0.388
4.578,226.260,0.388
4.600,226.031,0.388
4.622,225.804,0.388
4.644,225.578,0.388
4.667,225.354,0.388
4.689,225.132,0.388
4.711,224.911,0.388
4.733,224.691,0.388
4.756,224.474,0.388
4.778,224.258,0.388
4.800,224.043,0.388
4.822,223.830,0.388
4.844,223.619,0.388
4.867,223.408,0.388
4.889,223.200,0.388
4.911,222.992,0.388
4.933,222.787,0.388
4.956,222.582,0.388
4.978,222.379,0.388
5.000,222.177,0.388
5.022,221.977,0.388
5.044,221.778,0.388
5.067,221.580,0.388
5.089,221.383,0.388
5.111,221.188,0.388
5.133,220.994,0.388
5.156,220.801,0.388
5.178,220.610,0.388
5.200,220.420,0.388
5.222,220.230,0.388
5.244,220.043,0.388
5.267,219.856,0.388
5.289,219.671,0.388
5.311,219.486,0.388
5.333,219.303,0.388
5.356,219.122,0.388
5.378,218.941,0.388
5.400,218.761,0.388
5.422,218.582,0.388
5.444,218.405,0.388
5.467,218.229,0.388
5.489,218.054,0.388
5.511,217.880,0.388
5.533,217.707,0.388
5.556,217.535,0.388
5.578,217.364,0.388
5.600,217.194,0.388
5.622,217.025,0.388
5.644,216.857,0.388
5.667,216.691,0.388
5.689,216.525,0.388
5.711,216.359,0.388
5.733,216.195,0.388
5.756,216.032,0.388
5.778,215.870,0.388
5.800,215.709,0.388
5.822,215.548,0.388
5.844,215.389,0.388
5.867,215.231,0.388
5.889,215.073,0.388
5.911,214.916,0.388
5.933,214.760,0.388
5.956,214.605,0.388
5.978,214.451,0.388
6.000,214.298,0.388
6.022,214.145,0.388
6.044,213.993,0.388
6.067,213.842,0.388
6.089,213.692,0.388
6.111,213.543,0.388
6.133,213.394,0.388
6.156,213.246,0.388
6.178,213.099,0.388
6.200,212.953,0.388
6.222,212.807,0.388
6.244,212.662,0.388
6.267,212.518,0.388
6.289,212.374,0.388
6.311,212.231,0.388
6.333,212.090,0.388
6.356,211.948,0.388
6.378,211.808,0.388
6.400,211.668,0.388
6.422,211.529,0.388
6.444,211.391,0.388
6.467,211.253,0.388
6.489,211.116,0.388
6.511,210.980,0.388
6.533,210.844,0.388
6.556,210.709,0.388
6.578,210.575,0.388
6.600,210.441,0.388
6.622,210.308,0.388
6.644,210.176,0.388
6.667,210.044,0.388
6.689,209.913,0.388
6.711,209.783,0.388
6.733,209.653,0.388
6.756,209.524,0.388
6.778,209.395,0.388
6.800,209.268,0.388
6.822,209.140,0.388
6.844,209.014,0.388
6.867,208.888,0.388
6.889,208.763,0.388
6.911,208.638,0.388
6.933,208.514,0.388
6.956,208.390,0.388
6.978,208.267,0.388
7.000,208.145,0.388
7.022,208.023,0.388
7.044,207.902,0.388
7.067,207.782,0.388
7.089,207.662,0.388
7.111,207.542,0.388
7.133,207.424,0.388
7.156,207.306,0.388
7.178,207.188,0.388
7.200,207.071,0.388
7.222,206.955,0.388
7.244,206.839,0.388
7.267,206.723,0.388
7.289,206.608,0.388
7.311,206.494,0.388
7.333,206.380,0.388
7.356,206.266,0.388
7.378,206.153,0.388
7.400,206.041,0.388
7.422,205.929,0.388
7.444,205.818,0.388
7.467,205.707,0.388
7.489,205.596,0.388
7.511,205.486,0.388
7.533,205.377,0.388
7.556,205.268,0.388
7.578,205.159,0.388
7.600,205.051,0.388
7.622,204.944,0.388
7.644,204.837,0.388
7.667,204.730,0.388
7.689,204.624,0.388
7.711,204.519,0.388
7.733,204.414,0.388
7.756,204.310,0.388
7.778,204.205,0.388
7.800,204.102,0.388
7.822,203.998,0.388
7.844,203.896,0.388
7.867,203.793,0.388
7.889,203.691,0.388
7.911,203.590,0.388
7.933,203.489,0.388
7.956,203.388,0.388
7.978,203.288,0.388
8.000,203.188,0.388
8.022,203.088,0.388
8.044,202.989,0.388
8.067,202.891,0.388
8.089,202.793,0.388
8.111,202.695,0.388
8.133,202.598,0.388
8.156,202.501,0.388
8.178,202.405,0.388
8.200,202.309,0.388
8.222,202.214,0.388
8.244,202.118,0.388
8.267,202.023,0.388
8.289,201.928,0.388
8.311,201.834,0.388
8.333,201.740,0.388
8.356,201.646,0.388
8.378,201.553,0.388
8.400,201.460,0.388
8.422,201.367,0.388
8.444,201.274,0.388
8.467,201.182,0.388
8.489,201.090,0.388
8.511,200.999,0.388
8.533,200.908,0.388
8.556,200.817,0.388
8.578,200.728,0.388
8.600,200.638,0.388
8.622,200.549,0.388
8.644,200.460,0.388
8.667,200.372,0.388
8.689,200.284,0.388
8.711,200.197,0.388
8.733,200.109,0.388
8.756,200.022,0.388
8.778,199.936,0.388
8.800,199.849,0.388
8.822,199.763,0.388
8.844,199.678,0.388
8.867,199.593,0.388
8.889,199.508,0.388
8.911,199.423,0.388
8.933,199.338,0.388
8.956,199.254,0.388
8.978,199.171,0.388
9.000,199.087,0.388
9.022,199.005,0.388
9.044,198.922,0.388
9.067,198.840,0.388
9.089,198.758,0.388
9.111,198.677,0.388
9.133,198.596,0.388
9.156,198.515,0.388
9.178,198.434,0.388
9.200,198.354,0.388
9.222,198.273,0.388
9.244,198.194,0.388
9.267,198.114,0.388
9.289,198.035,0.388
9.311,197.957,0.388
9.333,197.878,0.388
9.356,197.800,0.388
9.378,197.722,0.388
9.400,197.644,0.388
9.422,197.567,0.388
9.444,197.489,0.388
9.467,197.413,0.388
9.489,197.336,0.388
9.511,197.260,0.388
9.533,197.184,0.388
9.556,197.108,0.388
9.578,197.032,0.388
9.600,196.957,0.388
9.622,196.882,0.388
9.644,196.807,0.388
9.667,196.732,0.388
9.689,196.658,0.388
9.711,196.584,0.388
9.733,196.510,0.388
9.756,196.436,0.388
9.778,196.362,0.388
9.800,196.289,0.388
9.822,196.215,0.388
9.844,196.142,0.388
9.867,196.070,0.388
9.889,195.997,0.388
9.911,195.925,0.388
9.933,195.852,0.388
9.956,195.780,0.388
9.978,195.708,0.388
10.000,195.636,0.388
10.022,195.565,0.388
10.044,195.493,0.388
10.067,195.422,0.388
10.089,195.351,0.388
10.111,195.280,0.388
10.133,195.209,0.388
10.156,195.139,0.388
10.178,195.069,0.388
10.200,194.999,0.388
10.222,194.929,0.388
10.244,194.859,0.388
10.267,194.790,0.388
10.289,194.721,0.388
10.311,194.652,0.388
10.333,194.583,0.388
10.356,194.514,0.388
10.378,194.446,0.388
10.400,194.378,0.388
10.422,194.310,0.388
10.444,194.242,0.388
10.467,194.174,0.388
10.489,194.106,0.388
10.511,194.039,0.388
10.533,193.971,0.388
10.556,193.904,0.388
10.578,193.837,0.388
10.600,193.770,0.388
10.622,193.704,0.388
10.644,193.637,0.388
10.667,193.571,0.388
10.689,193.506,0.388
10.711,193.440,0.388
10.733,193.375,0.388
10.756,193.310,0.388
10.778,193.246,0.388
10.800,193.181,0.388
10.822,193.117,0.388
10.844,193.053,0.388
10.867,192.990,0.388
10.889,192.928,0.388
10.911,192.865,0.390
10.933,192.803,0.396
10.956,192.741,0.402
10.978,192.679,0.408
11.000,192.617,0.769
